6395163
6395163
6395163
6395163
6395039
6395039
6394948
6394948
6394843
6394733
6394644
6394644
6394558
6394510
6394510
6394507
6394507
6394495
6394499
6394490
6394518
6394506
6394506
6394539
6394531
6394505
6394507
6394501
6394495
6394495
6394484
6394511
6394501
6394527
6394498
6394445
6393855
6393451
6393412
6394083
6395050
6396328
6397712
6400366
6400978
6400182
6399066
6397821
6396482
6394575
6394117
6393817
6394015
6394479
6394511
6394505
6394492
6394506
6394505
6394513
6394495
6394497
6394532
6394516
6394503
6394501
6394483
6394483
6394483
6394526
6394522
6394507
6394530
6394507
6394521
6394546
6394537
6394531
6394526
6394517
6394543
6394569
6394628
6394704
6394911
6395032
6395248
6395362
6395593
6395714
6395899
6396093
6396186
6396337
6396400
6396457
6396492
6396552
6396574
6396572
6396526
6396498
6396491
6396454
6396325
6396263
6396089
6395894
6395798
6395713
6395604
6395499
6395228
6395114
6394915
6394835
6394734
6394639
6394470
6394480
6394456
6394478
6394523
6394496
6394521
6394493
6394482
6394469
6394476
6394475
6394498
6394493
6394495
6394498
6394524
6394530
6394512
6394516
6394487
6394465
6394496
6394484
6394512
6394507
6394484
6394504
6394507
6394514
6394542
6394519
6394499
6394500
6394521
6394509
6394500
6394527
6394544
6394527
6394521
6394538
6394511
6394518
6394504
6394514
6394530
6394555
6394544
6394529
6394530
6394569
6394544
6394529
6394594
6394745
6394813
6395000
6395108
6395275
6395381
6395455
6395423
6395436
6395339
6395234
6395149
6395087
6394881
6394881
6394762
6394593
6394502
6394515
6394517
6394475
6394492
6394499
6394508
6394543
6394545
6394548
6394548
6394507
6394489
6394506
6394507
6394507
6394519
6394513
6394415
6394146
6393338
6393235
6394425
6395530
6396881
6398230
6400751
6401176
6399782
6398577
6397292
6395977
6394963
6394026
6393888
6394135
6394406
6394510
6394505
6394474
6394500
6394553
6394507
6394496
6394506
6394504
6394496
6394474
6394465
6394491
6394466
6394488
6394498
6394512
6394511
6394529
6394521
6394521
6394521
6394520
6394499
6394499
6394535
6394520
6394543
6394605
6394729
6394860
6395285
6395285
6395285
6395353
6395501
6395656
6395725
6395928
6396044
6396215
6396285
6396426
6396457
6396518
6396568
6396591
6396499
6396478
6396463
6396422
6396334
6396273
6396209
6396049
6395943
6395846
6395755
6395659
6395426
6395289
6395064
6394894
6394802
6394662
6394567
6394502
6394500
6394516
6394503
6394481
6394485
6394485
6394524
6394531
6394512
6394509
6394499
6394506
6394480
6394475
6394509
6394514
6394522
6394519
6394510
6394505
6394504
6394530
6394541
6394529
6394507
6394502
6394478
6394493
6394523
6394510
6394512
6394525
6394503
6394480
6394517
6394517
6394519
6394539
6394531
6394518
6394494
6394496
6394519
6394519
6394506
6394521
6394507
6394498
6394534
6394472
6394504
6394533
6394557
6394602
6394678
6394860
6394953
6395133
6395241
6395341
6395386
6395448
6395467
6395436
6395394
6395226
6395146
6394938
6394718
6394611
6394510
6394537
6394520
6394513
6394543
6394521
6394506
6394525
6394533
6394490
6394452
6394482
6394520
6394510
6394499
6394523
6394526
6394527
6394488
6394440
6393955
6393538
6393357
6393923
6394816
6396042
6398823
6400173
6401091
6400402
6398063
6396735
6394677
6393921
6393794
6394270
6394454
6394503
6394503
6394498
6394498
6394505
6394505
6394499
6394501
6394513
6394509
6394504
6394502
6394531
6394524
6394526
6394502
6394522
6394533
6394503
6394496
6394521
6394525
6394506
6394498
6394514
6394530
6394492
6394515
6394548
6394561
6394563
6394616
6394678
6394891
6395018
6395254
6395457
6395602
6395695
6395798
6395884
6396082
6396185
6396337
6396379
6396444
6396500
6396519
6396541
6396610
6396557
6396474
6396435
6396348
6396236
6396120
6395931
6395824
6395720
6395613
6395492
6395255
6395069
6394968
6394850
6394745
6394643
6394511
6394496
6394517
6394498
6394518
6394489
6394489
6394492
6394491
6394491
6394516
6394533
6394532
6394517
6394541
6394515
6394488
6394491
6394487
6394501
6394524
6394518
6394513
6394497
6394493
6394491
6394484
6394534
6394569
6394569
6394523
6394509
6394502
6394512
6394489
6394516
6394444
6394468
6394483
6394471
6394477
6394473
6394539
6394525
6394518
6394514
6394498
6394515
6394525
6394533
6394549
6394520
6394490
6394508
6394536
6394692
6394778
6394995
6395176
6395273
6395324
6395385
6395442
6395406
6395424
6395345
6395282
6395185
6395088
6394925
6394812
6394569
6394477
6394475
6394526
6394449
6394480
6394509
6394501
6394507
6394516
6394515
6394502
6394514
6394501
6394467
6394483
6394492
6394481
6394439
6394168
6393409
6393516
6394259
6395306
6396600
6397962
6400563
6401154
6400023
6398840
6397554
6396242
6394429
6394080
6393854
6394069
6394484
6394528
6394486
6394512
6394508
6394503
6394471
6394472
6394492
6394513
6394509
6394509
6394522
6394537
6394514
6394518
6394519
6394515
6394497
6394549
6394485
6394505
6394497
6394490
6394499
6394501
6394491
6394553
6394635
6394723
6394931
6395040
6395266
6395372
6395475
6395585
6395712
6395926
6396010
6396169
6396367
6396435
6396494
6396483
6396490
6396553
6396575
6396524
6396494
6396481
6396480
6396319
6396231
6396061
6395952
6395765
6395676
6395471
6395204
6395119
6394921
6394810
6394668
6394581
6394574
6394556
6394523
6394516
6394501
6394497
6394493
6394514
6394506
6394510
6394501
6394497
6394490
6394507
6394549
6394555
6394507
6394521
6394503
6394554
6394548
6394522
6394497
6394487
6394559
6394541
6394518
6394512
6394516
6394517
6394531
6394508
6394522
6394551
6394535
6394512
6394482
6394482
6394497
6394527
6394526
6394521
6394506
6394522
6394499
6394525
6394531
6394490
6394494
6394516
6394537
6394540
6394513
6394507
6394525
6394566
6394746
6394845
6395047
6395138
6395227
6395302
6395358
6395450
6395441
6395443
6395454
6395287
6395287
6395205
6395097
6394993
6394793
6394701
6394513
6394488
6394496
6394508
6394509
6394512
6394517
6394538
6394526
6394529
6394548
6394540
6394581
6394545
6394486
6394502
6394492
6394505
6394495
6394084
6393333
6393308
6393774
6394628
6395750
6398499
6399860
6401122
6400552
6398341
6397019
6395755
6394836
6393997
6393815
6394190
6394418
6394497
6394501
6394526
6394478
6394505
6394533
6394523
6394511
6394467
6394518
6394533
6394530
6394509
6394516
6394496
6394456
6394521
6394490
6394506
6394499
6394493
6394494
6394525
6394524
6394521
6394531
6394580
6394682
6394811
6394881
6395110
6395203
6395416
6395541
6395674
6395766
6395941
6396039
6396246
6396332
6396383
6396432
6396505
6396497
6396540
6396571
6396512
6396493
6396467
6396418
6396363
6396295
6396212
6396212
6396148
6396148
6396051
6395836
6395836
6395720
6395616
6395445
6395322
6395105
6394966
6394765
6394667
6394533
6394559
6394564
6394488
6394499
6394505
6394482
6394482
6394480
6394521
6394473
6394498
6394520
6394499
6394561
6394549
6394498
6394514
6394535
6394528
6394541
6394542
6394519
6394527
6394519
6394505
6394547
6394581
6394545
6394530
6394499
6394496
6394534
6394525
6394495
6394473
6394518
6394496
6394506
6394528
6394530
6394496
6394491
6394491
6394491
6394472
6394506
6394528
6394538
6394516
6394510
6394514
6394494
6394515
6394534
6394602
6394703
6394878
6394964
6395150
6395266
6395328
6395374
6395431
6395429
6395422
6395332
6395275
6395216
6395085
6394962
6394838
6394628
6394480
6394500
6394530
6394504
6394482
6394526
6394509
6394515
6394517
6394512
6394504
6394519
6394528
6394484
6394481
6394491
6394537
6394446
6393873
6393480
6393411
6394071
6395035
6396326
6397678
6399052
6400335
6400985
6400220
6399078
6397807
6396484
6394587
6394162
6393816
6394031
6394481
6394526
6394512
6394492
6394522
6394543
6394477
6394505
6394538
6394535
6394485
6394465
6394516
6394508
6394492
6394487
6394508
6394474
6394502
6394521
6394498
6394491
6394496
6394501
6394504
6394523
6394523
6394523
6394524
6394538
6394637
6394750
6394912
6395010
6395214
6395347
6395626
6395745
6395842
6395894
6396092
6396188
6396326
6396388
6396431
6396506
6396533
6396559
6396578
6396570
6396537
6396493
6396419
6396330
6396269
6396090
6395906
6395799
6395691
6395588
6395479
6395265
6395145
6394921
6394845
6394717
6394623
6394518
6394526
6394522
6394498
6394488
6394485
6394489
6394490
6394477
6394513
6394512
6394512
6394548
6394535
6394516
6394511
6394519
6394534
6394529
6394533
6394536
6394505
6394519
6394536
6394528
6394499
6394501
6394510
6394474
6394497
6394530
6394514
6394498
6394502
6394500
6394543
6394543
6394537
6394512
6394486
6394514
6394511
6394529
6394521
6394517
6394533
6394532
6394542
6394493
6394494
6394474
6394482
6394497
6394463
6394503
6394705
6394789
6395019
6395121
6395260
6395315
6395383
6395410
6395432
6395430
6395362
6395319
6395201
6395094
6394876
6394766
6394598
6394500
6394442
6394480
6394515
6394487
6394496
6394536
6394515
6394510
6394548
6394578
6394563
6394496
6394512
6394496
6394517
6394500
6394505
6394355
6394119
6393367
6393255
6394408
6395512
6398184
6400685
6401122
6399789
6398564
6397249
6395952
6394946
6394021
6393886
6394145
6394415
6394527
6394543
6394497
6394514
6394506
6394510
6394486
6394501
6394519
6394511
6394480
6394482
6394515
6394518
6394515
6394536
6394489
6394500
6394540
6394535
6394469
6394497
6394503
6394502
6394515
6394522
6394588
6394667
6394712
6394789
6394906
6395009
6395102
6395209
6395346
6395461
6395551
6395637
6395874
6395947
6396172
6396229
6396334
6396427
6396559
6396559
6396536
6396550
6396511
6396498
6396493
6396478
6396322
6396258
6396150
6396053
6395926
6395842
6395732
6395532
6395421
6395164
6394977
6394852
6394743
6394643
6394542
6394554
6394526
6394562
6394548
6394525
6394506
6394503
6394502
6394487
6394526
6394549
6394481
6394517
6394508
6394521
6394547
6394533
6394540
6394515
6394525
6394516
6394492
6394492
6394514
6394514
6394516
6394526
6394511
6394506
6394517
6394539
6394526
6394518
6394523
6394505
6394505
6394497
6394495
6394495
6394528
6394587
6394564
6394516
6394526
6394550
6394493
6394535
6394520
6394523
6394503
6394532
6394563
6394527
6394515
6394500
6394531
6394609
6394791
6394907
6395092
6395187
6395279
6395339
6395459
6395458
6395457
6395427
6395242
6395197
6395124
6395046
6394817
6394714
6394512
6394516
6394512
6394510
6394512
6394515
6394544
6394565
6394539
6394533
6394532
6394510
6394522
6394491
6394525
6394534
6394549
6394577
6394513
6394209
6393838
6393289
6393540
6394229
6395236
6397917
6399320
6401128
6400882
6398871
6397581
6395155
6394037
6393839
6394110
6394362
6394482
6394521
6394515
6394489
6394494
6394505
6394514
6394520
6394506
6394501
6394525
6394519
6394549
6394534
6394492
6394505
6394482
6394500
6394526
6394545
6394525
6394498
6394475
6394530
6394515
6394516
6394514
6394546
6394617
6394827
6394935
6395157
6395360
6395494
6395655
6395756
6395822
6396046
6396139
6396283
6396334
6396400
6396472
6396502
6396532
6396575
6396572
6396496
6396484
6396371
6396269
6396176
6396000
6395898
6395789
6395708
6395495
6395495
6395355
6395110
6394992
6394906
6394788
6394660
6394564
6394517
6394498
6394536
6394542
6394510
6394497
6394495
6394554
6394537
6394527
6394527
6394543
6394523
6394499
6394525
6394543
6394511
6394498
6394507
6394503
6394516
6394514
6394510
6394473
6394499
6394535
6394504
6394515
6394498
6394493
6394521
6394520
6394502
6394488
6394526
6394526
6394516
6394496
6394490
6394509
6394517
6394539
6394517
6394526
6394500
6394487
6394530
6394532
6394523
6394535
6394524
6394502
6394541
6394652
6394781
6394926
6395086
6395185
6395301
6395385
6395424
6395469
6395450
6395323
6395323
6395283
6395176
6394985
6394866
6394688
6394559
6394506
6394547
6394504
6394486
6394509
6394508
6394513
6394524
6394513
6394490
6394490
6394480
6394506
6394507
6394515
6394526
6394523
6394509
6394475
6393619
6393619
6393281
6393771
6394577
6395699
6397104
6399849
6400882
6400576
6399599
6398418
6397079
6394830
6394297
6393828
6393939
6394434
6394485
6394494
6394517
6394495
6394516
6394525
6394520
6394479
6394475
6394525
6394520
6394518
6394518
6394506
6394509
6394509
6394501
6394466
6394485
6394483
6394511
6394504
6394457
6394505
6394527
6394494
6394506
6394578
6394704
6394896
6394997
6395193
6395337
6395557
6395665
6395839
6395949
6396157
6396320
6396360
6396431
6396514
6396514
6396500
6396562
6396549
6396505
6396505
6396491
6396375
6396301
6396138
6396037
6395860
6395785
6395511
6395346
6395228
6394973
6394851
6394753
6394639
6394544
6394517
6394519
6394508
6394498
6394510
6394509
6394504
6394517
6394522
6394512
6394491
6394482
6394512
6394540
6394541
6394544
6394533
6394515
6394522
6394512
6394516
6394535
6394518
6394515
6394528
6394516
6394514
6394497
6394471
6394483
6394488
6394485
6394493
6394522
6394533
6394494
6394521
6394518
6394528
6394486
6394516
6394527
6394514
6394527
6394503
6394557
6394539
6394510
6394511
6394523
6394534
6394540
6394533
6394527
6394528
6394739
6394812
6394970
6395082
6395239
6395312
6395434
6395489
6395445
6395371
6395331
6395246
6395145
6395069
6394821
6394769
6394554
6394541
6394508
6394488
6394503
6394525
6394538
6394536
6394524
6394531
6394502
6394504
6394504
6394527
6394525
6394513
6394486
6394488
6394488
6394464
6394314
6394314
6393485
6393242
6393398
6394038
6395002
6397656
6399012
6401089
6400238
6399133
6397876
6396548
6395342
6394142
6393893
6394007
6394283
6394475
6394523
6394503
6394529
6394536
6394493
6394531
6394514
6394517
6394528
6394543
6394527
6394507
6394519
6394537
6394530
6394533
6394524
6394530
6394539
6394530
6394518
6394527
6394510
6394502
6394512
6394511
6394550
6394573
6394692
6394821
6395013
6395149
6395358
6395471
6395608
6395709
6395890
6395995
6396193
6396254
6396370
6396443
6396539
6396563
6396554
6396530
6396507
6396500
6396437
6396389
6396256
6396185
6396012
6395921
6395814
6395721
6395493
6395401
6395140
6395050
6394841
6394746
6394535
6394519
6394497
6394523
6394536
6394523
6394509
6394517
6394519
6394512
6394507
6394486
6394485
6394512
6394496
6394532
6394516
6394504
6394526
6394556
6394551
6394528
6394510
6394493
6394499
6394479
6394494
6394518
6394516
6394546
6394529
6394508
6394498
6394519
6394534
6394510
6394509
6394509
6394542
6394548
6394534
6394514
6394502
6394512
6394515
6394540
6394531
6394553
6394528
6394525
6394532
6394506
6394482
6394482
6394515
6394564
6394637
6394844
6394940
6395164
6395222
6395297
6395369
6395408
6395401
6395431
6395413
6395314
6395217
6395010
6394889
6394708
6394537
6394528
6394530
6394516
6394530
6394523
6394523
6394513
6394481
6394499
6394516
6394508
6394514
6394533
6394543
6394527
6394521
6394488
6394150
6393751
6393278
6393656
6394410
6395509
6396839
6399562
6401115
6400727
6399776
6398590
6397311
6394983
6394399
6393820
6394105
6394389
6394508
6394545
6394537
6394482
6394463
6394488
6394490
6394500
6394509
6394521
6394538
6394513
6394510
6394496
6394501
6394550
6394504
6394507
6394596
6394566
6394531
6394501
6394530
6394532
6394531
6394521
6394509
6394566
6394673
6394851
6394977
6395157
6395256
6395535
6395627
6395712
6395825
6396026
6396134
6396289
6396343
6396427
6396473
6396516
6396552
6396577
6396570
6396540
6396519
6396497
6396360
6396292
6396169
6395994
6395887
6395795
6395657
6395567
6395326
6395180
6395023
6394935
6394810
6394709
6394557
6394544
6394544
6394550
6394549
6394548
6394536
6394536
6394509
6394491
6394491
6394501
6394525
6394551
6394529
6394527
6394527
6394515
6394503
6394508
6394506
6394528
6394546
6394526
6394500
6394542
6394542
6394533
6394541
6394506
6394511
6394528
6394521
6394513
6394539
6394550
6394539
6394515
6394511
6394555
6394530
6394506
6394511
6394535
6394517
6394530
6394501
6394521
6394540
6394543
6394549
6394522
6394516
6394521
6394545
6394534
6394525
6394525
6394655
6394753
6394969
6395064
6395216
6395307
6395395
6395446
6395430
6395432
6395439
6395356
6395224
6395116
6394929
6394836
6394683
6394552
6394501
6394514
6394541
6394490
6394491
6394510
6394557
6394544
6394546
6394546
6394508
6394523
6394554
6394524
6394495
6394494
6394509
6394506
6394333
6393581
6393300
6393354
6393896
6394770
6397361
6400086
6400991
6400413
6399390
6398137
6396779
6395515
6394234
6393859
6393980
6394258
6394462
6394549
6394488
6394511
6394509
6394537
6394531
6394531
6394512
6394493
6394490
6394488
6394517
6394512
6394511
6394518
6394504
6394509
6394520
6394516
6394497
6394477
6394480
6394483
6394494
6394504
6394515
6394514
6394574
6394688
6394775
6394860
6394956
6395071
6395204
6395204
6395304
6395420
6395559
6395691
6395883
6395977
6396155
6396240
6396415
6396445
6396471
6396500
6396566
6396596
6396519
6396511
6396522
6396490
6396347
6396268
6396126
6396019
6395938
6395842
6395731
6395529
6395403
6395196
6394936
6394858
6394760
6394640
6394543
6394545
6394544
6394473
6394466
6394520
6394522
6394483
6394503
6394502
6394510
6394522
6394497
6394508
6394519
6394494
6394510
6394525
6394528
6394574
6394561
6394514
6394537
6394482
6394504
6394530
6394537
6394538
6394551
6394526
6394517
6394516
6394526
6394519
6394505
6394524
6394491
6394491
6394510
6394530
6394514
6394511
6394511
6394532
6394505
6394478
6394507
6394553
6394546
6394466
6394486
6394519
6394526
6394543
6394524
6394536
6394609
6394808
6394957
6394957
6395084
6395181
6395252
6395321
6395420
6395451
6395433
6395420
6395399
6395256
6395171
6395077
6395012
6394845
6394741
6394535
6394505
6394500
6394509
6394521
6394518
6394531
6394509
6394515
6394505
6394549
6394544
6394532
6394502
6394520
6394550
6394522
6394501
6394508
6394495
6394203
6393815
6393250
6393497
6394196
6395214
6397905
6399306
6401126
6400877
6400021
6398859
6397577
6395132
6394113
6393862
6394059
6394329
6394482
6394515
6394505
6394538
6394510
6394489
6394492
6394505
6394511
6394521
6394500
6394490
6394485
6394480
6394495
6394487
6394511
6394465
6394489
6394482
6394482
6394484
6394483
6394525
6394491
6394517
6394514
6394503
6394488
6394543
6394785
6394956
6395082
6395324
6395449
6395554
6395682
6395792
6396163
6396163
6396163
6396293
6396338
6396401
6396470
6396514
6396548
6396553
6396549
6396505
6396501
6396477
6396449
6396326
6396257
6396043
6395937
6395828
6395749
6395618
6395533
6395248
6395137
6395063
6394947
6394846
6394655
6394570
6394510
6394559
6394544
6394512
6394499
6394511
6394533
6394510
6394505
6394507
6394501
6394518
6394513
6394512
6394505
6394512
6394519
6394517
6394495
6394538
6394499
6394527
6394510
6394529
6394550
6394521
6394498
6394536
6394521
6394521
6394518
6394536
6394513
6394520
6394513
6394540
6394512
6394519
6394521
6394511
6394490
6394524
6394500
6394485
6394508
6394507
6394511
6394496
6394477
6394510
6394487
6394481
6394468
6394479
6394538
6394720
6394802
6395031
6395103
6395179
6395274
6395358
6395423
6395467
6395470
6395472
6395431
6395320
6395229
6395087
6394999
6394789
6394688
6394506
6394485
6394489
6394497
6394498
6394539
6394522
6394506
6394530
6394558
6394510
6394548
6394524
6394519
6394521
6394559
6394537
6394544
6394496
6394180
6393373
6393253
6393598
6394361
6395426
6398106
6399482
6401149
6400758
6399832
6398663
6396074
6395034
6394055
6393858
6393838
6394107
6394384
6394518
6394516
6394510
6394487
6394481
6394470
6394461
6394490
6394526
6394537
6394531
6394508
6394480
6394460
6394492
6394498
6394524
6394528
6394526
6394521
6394528
6394524
6394539
6394539
6394529
6394516
6394524
6394548
6394785
6394879
6395070
6395189
6395312
6395475
6395586
6395700
6395816
6396047
6396231
6396301
6396377
6396464
6396488
6396545
6396574
6396570
6396558
6396523
6396475
6396516
6396440
6396375
6396234
6396159
6395957
6395886
6395793
6395691
6395425
6395339
6395124
6394979
6394865
6394775
6394582
6394551
6394522
6394547
6394513
6394505
6394505
6394507
6394507
6394516
6394489
6394529
6394532
6394534
6394539
6394522
6394524
6394544
6394556
6394517
6394510
6394505
6394529
6394518
6394552
6394530
6394523
6394520
6394530
6394522
6394544
6394501
6394527
6394543
6394555
6394533
6394518
6394519
6394510
6394510
6394537
6394535
6394518
6394518
6394503
6394492
6394512
6394518
6394559
6394534
6394538
6394549
6394524
6394516
6394522
6394523
6394513
6394517
6394618
6394681
6394833
6394948
6395067
6395171
6395254
6395377
6395439
6395440
6395451
6395368
6395300
6395256
6395149
6394972
6394876
6394789
6394661
6394550
6394525
6394556
6394523
6394499
6394530
6394527
6394545
6394504
6394512
6394510
6394543
6394536
6394504
6394501
6394500
6394497
6394507
6394475
6393987
6393562
6393282
6393316
6393869
6395912
6397300
6400028
6401133
6400521
6399468
6398184
6396875
6394701
6394224
6393812
6393953
6394244
6394444
6394528
6394518
6394542
6394516
6394496
6394473
6394482
6394516
6394486
6394527
6394506
6394522
6394507
6394504
6394511
6394502
6394527
6394524
6394523
6394515
6394503
6394519
6394520
6394497
6394527
6394568
6394577
6394605
6394675
6394932
6395029
6395266
6395356
6395467
6395573
6395793
6395891
6396093
6396154
6396229
6396328
6396401
6396520
6396530
6396590
6396574
6396605
6396570
6396508
6396450
6396383
6396324
6396165
6396026
6395944
6395864
6395600
6395500
6395303
6395193
6394947
6394872
6394639
6394538
6394511
6394531
6394525
6394521
6394537
6394535
6394522
6394509
6394530
6394514
6394514
6394533
6394530
6394490
6394502
6394492
6394503
6394524
6394529
6394516
6394522
6394500
6394500
6394507
6394494
6394511
6394538
6394550
6394538
6394558
6394529
6394526
6394534
6394509
6394506
6394529
6394527
6394550
6394548
6394528
6394507
6394506
6394556
6394509
6394512
6394510
6394514
6394523
6394490
6394465
6394494
6394542
6394523
6394528
6394539
6394561
6394702
6394795
6394993
6395088
6395198
6395289
6395379
6395420
6395487
6395447
6395409
6395357
6395323
6395142
6395042
6394818
6394654
6394551
6394518
6394528
6394537
6394511
6394497
6394509
6394523
6394533
6394566
6394526
6394534
6394544
6394520
6394520
6394524
6394517
6394424
6394259
6393445
6393262
6393487
6394214
6396502
6396502
6397869
6400504
6401148
6400964
6400136
6398966
6396354
6395225
6394097
6393857
6394068
6394353
6394475
6394501
6394527
6394514
6394531
6394508
6394509
6394513
6394515
6394539
6394511
6394499
6394518
6394533
6394526
6394504
6394518
6394534
6394534
6394511
6394511
6394538
6394531
6394521
6394516
6394518
6394519
6394496
6394523
6394726
6394861
6395014
6395151
6395418
6395514
6395625
6395725
6395934
6396034
6396201
6396292
6396391
6396428
6396530
6396534
6396579
6396633
6396603
6396552
6396535
6396494
6396445
6396231
6396096
6395995
6395908
6395820
6395716
6395499
6395368
6395130
6395033
6394942
6394836
6394584
6394535
6394541
6394535
6394523
6394507
6394516
6394527
6394529
6394525
6394509
6394512
6394513
6394518
6394518
6394528
6394531
6394537
6394545
6394515
6394495
6394536
6394537
6394526
6394518
6394482
6394502
6394522
6394506
6394544
6394544
6394523
6394528
6394523
6394498
6394524
6394520
6394520
6394524
6394545
6394536
6394530
6394465
6394552
6394552
6394508
6394504
6394518
6394511
6394537
6394525
6394500
6394533
6394538
6394532
6394513
6394497
6394497
6394587
6394686
6394819
6394927
6395116
6395212
6395294
6395378
6395457
6395457
6395388
6395388
6395329
6395278
6395078
6394967
6394807
6394695
6394587
6394538
6394554
6394522
6394508
6394520
6394503
6394524
6394550
6394554
6394549
6394513
6394513
6394513
6394527
6394517
6394522
6394517
6394461
6394466
6394107
6393694
6393322
6393749
6395688
6398402
6399783
6401149
6400619
6399629
6398425
6397123
6395823
6394877
6394019
6393832
6393913
6394167
6394431
6394485
6394478
6394542
6394526
6394532
6394535
6394525
6394539
6394506
6394551
6394552
6394526
6394486
6394521
6394542
6394537
6394536
6394532
6394526
6394524
6394521
6394527
6394550
6394572
6394516
6394523
6394533
6394575
6394670
6394906
6395096
6395243
6395331
6395412
6395518
6395785
6395858
6396076
6396176
6396313
6396378
6396487
6396487
6396562
6396578
6396579
6396583
6396536
6396523
6396439
6396400
6396264
6396166
6396053
6395969
6395893
6395663
6395556
6395345
6395124
6394994
6394874
6394767
6394678
6394555
6394538
6394549
6394556
6394533
6394519
6394511
6394502
6394580
6394581
6394542
6394548
6394532
6394538
6394543
6394549
6394536
6394523
6394540
6394555
6394540
6394522
6394527
6394545
6394548
6394509
6394502
6394510
6394512
6394533
6394523
6394525
6394510
6394485
6394491
6394509
6394563
6394550
6394561
6394549
6394512
6394478
6394507
6394508
6394537
6394533
6394519
6394529
6394521
6394526
6394539
6394541
6394550
6394558
6394543
6394539
6394678
6394926
6395010
6395088
6395188
6395292
6395435
6395459
6395491
6395510
6395422
6395339
6395250
6395168
6394965
6394841
6394687
6394604
6395163
6395163
6395163
6395163
6395039
6395039
6394948
6394948
6394843
6394733
6394644
6394644
6394558
6394510
6394510
6394507
6394507
6394495
6394499
6394490
6394518
6394506
6394506
6394539
6394531
6394505
6394507
6394501
6394495
6394495
6394484
6394511
6394501
6394527
6394498
6394445
6393855
6393451
6393412
6394083
6395050
6396328
6397712
6400366
6400978
6400182
6399066
6397821
6396482
6394575
6394117
6393817
6394015
6394479
6394511
6394505
6394492
6394506
6394505
6394513
6394495
6394497
6394532
6394516
6394503
6394501
6394483
6394483
6394483
6394526
6394522
6394507
6394530
6394507
6394521
6394546
6394537
6394531
6394526
6394517
6394543
6394569
6394628
6394704
6394911
6395032
6395248
6395362
6395593
6395714
6395899
6396093
6396186
6396337
6396400
6396457
6396492
6396552
6396574
6396572
6396526
6396498
6396491
6396454
6396325
6396263
6396089
6395894
6395798
6395713
6395604
6395499
6395228
6395114
6394915
6394835
6394734
6394639
6394470
6394480
6394456
6394478
6394523
6394496
6394521
6394493
6394482
6394469
6394476
6394475
6394498
6394493
6394495
6394498
6394524
6394530
6394512
6394516
6394487
6394465
6394496
6394484
6394512
6394507
6394484
6394504
6394507
6394514
6394542
6394519
6394499
6394500
6394521
6394509
6394500
6394527
6394544
6394527
6394521
6394538
6394511
6394518
6394504
6394514
6394530
6394555
6394544
6394529
6394530
6394569
6394544
6394529
6394594
6394745
6394813
6395000
6395108
6395275
6395381
6395455
6395423
6395436
6395339
6395234
6395149
6395087
6394881
6394881
6394762
6394593
6394502
6394515
6394517
6394475
6394492
6394499
6394508
6394543
6394545
6394548
6394548
6394507
6394489
6394506
6394507
6394507
6394519
6394513
6394415
6394146
6393338
6393235
6394425
6395530
6396881
6398230
6400751
6401176
6399782
6398577
6397292
6395977
6394963
6394026
6393888
6394135
6394406
6394510
6394505
6394474
6394500
6394553
6394507
6394496
6394506
6394504
6394496
6394474
6394465
6394491
6394466
6394488
6394498
6394512
6394511
6394529
6394521
6394521
6394521
6394520
6394499
6394499
6394535
6394520
6394543
6394605
6394729
6394860
6395285
6395285
6395285
6395353
6395501
6395656
6395725
6395928
6396044
6396215
6396285
6396426
6396457
6396518
6396568
6396591
6396499
6396478
6396463
6396422
6396334
6396273
6396209
6396049
6395943
6395846
6395755
6395659
6395426
6395289
6395064
6394894
6394802
6394662
6394567
6394502
6394500
6394516
6394503
6394481
6394485
6394485
6394524
6394531
6394512
6394509
6394499
6394506
6394480
6394475
6394509
6394514
6394522
6394519
6394510
6394505
6394504
6394530
6394541
6394529
6394507
6394502
6394478
6394493
6394523
6394510
6394512
6394525
6394503
6394480
6394517
6394517
6394519
6394539
6394531
6394518
6394494
6394496
6394519
6394519
6394506
6394521
6394507
6394498
6394534
6394472
6394504
6394533
6394557
6394602
6394678
6394860
6394953
6395133
6395241
6395341
6395386
6395448
6395467
6395436
6395394
6395226
6395146
6394938
6394718
6394611
6394510
6394537
6394520
6394513
6394543
6394521
6394506
6394525
6394533
6394490
6394452
6394482
6394520
6394510
6394499
6394523
6394526
6394527
6394488
6394440
6393955
6393538
6393357
6393923
6394816
6396042
6398823
6400173
6401091
6400402
6398063
6396735
6394677
6393921
6393794
6394270
6394454
6394503
6394503
6394498
6394498
6394505
6394505
6394499
6394501
6394513
6394509
6394504
6394502
6394531
6394524
6394526
6394502
6394522
6394533
6394503
6394496
6394521
6394525
6394506
6394498
6394514
6394530
6394492
6394515
6394548
6394561
6394563
6394616
6394678
6394891
6395018
6395254
6395457
6395602
6395695
6395798
6395884
6396082
6396185
6396337
6396379
6396444
6396500
6396519
6396541
6396610
6396557
6396474
6396435
6396348
6396236
6396120
6395931
6395824
6395720
6395613
6395492
6395255
6395069
6394968
6394850
6394745
6394643
6394511
6394496
6394517
6394498
6394518
6394489
6394489
6394492
6394491
6394491
6394516
6394533
6394532
6394517
6394541
6394515
6394488
6394491
6394487
6394501
6394524
6394518
6394513
6394497
6394493
6394491
6394484
6394534
6394569
6394569
6394523
6394509
6394502
6394512
6394489
6394516
6394444
6394468
6394483
6394471
6394477
6394473
6394539
6394525
6394518
6394514
6394498
6394515
6394525
6394533
6394549
6394520
6394490
6394508
6394536
6394692
6394778
6394995
6395176
6395273
6395324
6395385
6395442
6395406
6395424
6395345
6395282
6395185
6395088
6394925
6394812
6394569
6394477
6394475
6394526
6394449
6394480
6394509
6394501
6394507
6394516
6394515
6394502
6394514
6394501
6394467
6394483
6394492
6394481
6394439
6394168
6393409
6393516
6394259
6395306
6396600
6397962
6400563
6401154
6400023
6398840
6397554
6396242
6394429
6394080
6393854
6394069
6394484
6394528
6394486
6394512
6394508
6394503
6394471
6394472
6394492
6394513
6394509
6394509
6394522
6394537
6394514
6394518
6394519
6394515
6394497
6394549
6394485
6394505
6394497
6394490
6394499
6394501
6394491
6394553
6394635
6394723
6394931
6395040
6395266
6395372
6395475
6395585
6395712
6395926
6396010
6396169
6396367
6396435
6396494
6396483
6396490
6396553
6396575
6396524
6396494
6396481
6396480
6396319
6396231
6396061
6395952
6395765
6395676
6395471
6395204
6395119
6394921
6394810
6394668
6394581
6394574
6394556
6394523
6394516
6394501
6394497
6394493
6394514
6394506
6394510
6394501
6394497
6394490
6394507
6394549
6394555
6394507
6394521
6394503
6394554
6394548
6394522
6394497
6394487
6394559
6394541
6394518
6394512
6394516
6394517
6394531
6394508
6394522
6394551
6394535
6394512
6394482
6394482
6394497
6394527
6394526
6394521
6394506
6394522
6394499
6394525
6394531
6394490
6394494
6394516
6394537
6394540
6394513
6394507
6394525
6394566
6394746
6394845
6395047
6395138
6395227
6395302
6395358
6395450
6395441
6395443
6395454
6395287
6395287
6395205
6395097
6394993
6394793
6394701
6394513
6394488
6394496
6394508
6394509
6394512
6394517
6394538
6394526
6394529
6394548
6394540
6394581
6394545
6394486
6394502
6394492
6394505
6394495
6394084
6393333
6393308
6393774
6394628
6395750
6398499
6399860
6401122
6400552
6398341
6397019
6395755
6394836
6393997
6393815
6394190
6394418
6394497
6394501
6394526
6394478
6394505
6394533
6394523
6394511
6394467
6394518
6394533
6394530
6394509
6394516
6394496
6394456
6394521
6394490
6394506
6394499
6394493
6394494
6394525
6394524
6394521
6394531
6394580
6394682
6394811
6394881
6395110
6395203
6395416
6395541
6395674
6395766
6395941
6396039
6396246
6396332
6396383
6396432
6396505
6396497
6396540
6396571
6396512
6396493
6396467
6396418
6396363
6396295
6396212
6396212
6396148
6396148
6396051
6395836
6395836
6395720
6395616
6395445
6395322
6395105
6394966
6394765
6394667
6394533
6394559
6394564
6394488
6394499
6394505
6394482
6394482
6394480
6394521
6394473
6394498
6394520
6394499
6394561
6394549
6394498
6394514
6394535
6394528
6394541
6394542
6394519
6394527
6394519
6394505
6394547
6394581
6394545
6394530
6394499
6394496
6394534
6394525
6394495
6394473
6394518
6394496
6394506
6394528
6394530
6394496
6394491
6394491
6394491
6394472
6394506
6394528
6394538
6394516
6394510
6394514
6394494
6394515
6394534
6394602
6394703
6394878
6394964
6395150
6395266
6395328
6395374
6395431
6395429
6395422
6395332
6395275
6395216
6395085
6394962
6394838
6394628
6394480
6394500
6394530
6394504
6394482
6394526
6394509
6394515
6394517
6394512
6394504
6394519
6394528
6394484
6394481
6394491
6394537
6394446
6393873
6393480
6393411
6394071
6395035
6396326
6397678
6399052
6400335
6400985
6400220
6399078
6397807
6396484
6394587
6394162
6393816
6394031
6394481
6394526
6394512
6394492
6394522
6394543
6394477
6394505
6394538
6394535
6394485
6394465
6394516
6394508
6394492
6394487
6394508
6394474
6394502
6394521
6394498
6394491
6394496
6394501
6394504
6394523
6394523
6394523
6394524
6394538
6394637
6394750
6394912
6395010
6395214
6395347
6395626
6395745
6395842
6395894
6396092
6396188
6396326
6396388
6396431
6396506
6396533
6396559
6396578
6396570
6396537
6396493
6396419
6396330
6396269
6396090
6395906
6395799
6395691
6395588
6395479
6395265
6395145
6394921
6394845
6394717
6394623
6394518
6394526
6394522
6394498
6394488
6394485
6394489
6394490
6394477
6394513
6394512
6394512
6394548
6394535
6394516
6394511
6394519
6394534
6394529
6394533
6394536
6394505
6394519
6394536
6394528
6394499
6394501
6394510
6394474
6394497
6394530
6394514
6394498
6394502
6394500
6394543
6394543
6394537
6394512
6394486
6394514
6394511
6394529
6394521
6394517
6394533
6394532
6394542
6394493
6394494
6394474
6394482
6394497
6394463
6394503
6394705
6394789
6395019
6395121
6395260
6395315
6395383
6395410
6395432
6395430
6395362
6395319
6395201
6395094
6394876
6394766
6394598
6394500
6394442
6394480
6394515
6394487
6394496
6394536
6394515
6394510
6394548
6394578
6394563
6394496
6394512
6394496
6394517
6394500
6394505
6394355
6394119
6393367
6393255
6394408
6395512
6398184
6400685
6401122
6399789
6398564
6397249
6395952
6394946
6394021
6393886
6394145
6394415
6394527
6394543
6394497
6394514
6394506
6394510
6394486
6394501
6394519
6394511
6394480
6394482
6394515
6394518
6394515
6394536
6394489
6394500
6394540
6394535
6394469
6394497
6394503
6394502
6394515
6394522
6394588
6394667
6394712
6394789
6394906
6395009
6395102
6395209
6395346
6395461
6395551
6395637
6395874
6395947
6396172
6396229
6396334
6396427
6396559
6396559
6396536
6396550
6396511
6396498
6396493
6396478
6396322
6396258
6396150
6396053
6395926
6395842
6395732
6395532
6395421
6395164
6394977
6394852
6394743
6394643
6394542
6394554
6394526
6394562
6394548
6394525
6394506
6394503
6394502
6394487
6394526
6394549
6394481
6394517
6394508
6394521
6394547
6394533
6394540
6394515
6394525
6394516
6394492
6394492
6394514
6394514
6394516
6394526
6394511
6394506
6394517
6394539
6394526
6394518
6394523
6394505
6394505
6394497
6394495
6394495
6394528
6394587
6394564
6394516
6394526
6394550
6394493
6394535
6394520
6394523
6394503
6394532
6394563
6394527
6394515
6394500
6394531
6394609
6394791
6394907
6395092
6395187
6395279
6395339
6395459
6395458
6395457
6395427
6395242
6395197
6395124
6395046
6394817
6394714
6394512
6394516
6394512
6394510
6394512
6394515
6394544
6394565
6394539
6394533
6394532
6394510
6394522
6394491
6394525
6394534
6394549
6394577
6394513
6394209
6393838
6393289
6393540
6394229
6395236
6397917
6399320
6401128
6400882
6398871
6397581
6395155
6394037
6393839
6394110
6394362
6394482
6394521
6394515
6394489
6394494
6394505
6394514
6394520
6394506
6394501
6394525
6394519
6394549
6394534
6394492
6394505
6394482
6394500
6394526
6394545
6394525
6394498
6394475
6394530
6394515
6394516
6394514
6394546
6394617
6394827
6394935
6395157
6395360
6395494
6395655
6395756
6395822
6396046
6396139
6396283
6396334
6396400
6396472
6396502
6396532
6396575
6396572
6396496
6396484
6396371
6396269
6396176
6396000
6395898
6395789
6395708
6395495
6395495
6395355
6395110
6394992
6394906
6394788
6394660
6394564
6394517
6394498
6394536
6394542
6394510
6394497
6394495
6394554
6394537
6394527
6394527
6394543
6394523
6394499
6394525
6394543
6394511
6394498
6394507
6394503
6394516
6394514
6394510
6394473
6394499
6394535
6394504
6394515
6394498
6394493
6394521
6394520
6394502
6394488
6394526
6394526
6394516
6394496
6394490
6394509
6394517
6394539
6394517
6394526
6394500
6394487
6394530
6394532
6394523
6394535
6394524
6394502
6394541
6394652
6394781
6394926
6395086
6395185
6395301
6395385
6395424
6395469
6395450
6395323
6395323
6395283
6395176
6394985
6394866
6394688
6394559
6394506
6394547
6394504
6394486
6394509
6394508
6394513
6394524
6394513
6394490
6394490
6394480
6394506
6394507
6394515
6394526
6394523
6394509
6394475
6393619
6393619
6393281
6393771
6394577
6395699
6397104
6399849
6400882
6400576
6399599
6398418
6397079
6394830
6394297
6393828
6393939
6394434
6394485
6394494
6394517
6394495
6394516
6394525
6394520
6394479
6394475
6394525
6394520
6394518
6394518
6394506
6394509
6394509
6394501
6394466
6394485
6394483
6394511
6394504
6394457
6394505
6394527
6394494
6394506
6394578
6394704
6394896
6394997
6395193
6395337
6395557
6395665
6395839
6395949
6396157
6396320
6396360
6396431
6396514
6396514
6396500
6396562
6396549
6396505
6396505
6396491
6396375
6396301
6396138
6396037
6395860
6395785
6395511
6395346
6395228
6394973
6394851
6394753
6394639
6394544
6394517
6394519
6394508
6394498
6394510
6394509
6394504
6394517
6394522
6394512
6394491
6394482
6394512
6394540
6394541
6394544
6394533
6394515
6394522
6394512
6394516
6394535
6394518
6394515
6394528
6394516
6394514
6394497
6394471
6394483
6394488
6394485
6394493
6394522
6394533
6394494
6394521
6394518
6394528
6394486
6394516
6394527
6394514
6394527
6394503
6394557
6394539
6394510
6394511
6394523
6394534
6394540
6394533
6394527
6394528
6394739
6394812
6394970
6395082
6395239
6395312
6395434
6395489
6395445
6395371
6395331
6395246
6395145
6395069
6394821
6394769
6394554
6394541
6394508
6394488
6394503
6394525
6394538
6394536
6394524
6394531
6394502
6394504
6394504
6394527
6394525
6394513
6394486
6394488
6394488
6394464
6394314
6394314
6393485
6393242
6393398
6394038
6395002
6397656
6399012
6401089
6400238
6399133
6397876
6396548
6395342
6394142
6393893
6394007
6394283
6394475
6394523
6394503
6394529
6394536
6394493
6394531
6394514
6394517
6394528
6394543
6394527
6394507
6394519
6394537
6394530
6394533
6394524
6394530
6394539
6394530
6394518
6394527
6394510
6394502
6394512
6394511
6394550
6394573
6394692
6394821
6395013
6395149
6395358
6395471
6395608
6395709
6395890
6395995
6396193
6396254
6396370
6396443
6396539
6396563
6396554
6396530
6396507
6396500
6396437
6396389
6396256
6396185
6396012
6395921
6395814
6395721
6395493
6395401
6395140
6395050
6394841
6394746
6394535
6394519
6394497
6394523
6394536
6394523
6394509
6394517
6394519
6394512
6394507
6394486
6394485
6394512
6394496
6394532
6394516
6394504
6394526
6394556
6394551
6394528
6394510
6394493
6394499
6394479
6394494
6394518
6394516
6394546
6394529
6394508
6394498
6394519
6394534
6394510
6394509
6394509
6394542
6394548
6394534
6394514
6394502
6394512
6394515
6394540
6394531
6394553
6394528
6394525
6394532
6394506
6394482
6394482
6394515
6394564
6394637
6394844
6394940
6395164
6395222
6395297
6395369
6395408
6395401
6395431
6395413
6395314
6395217
6395010
6394889
6394708
6394537
6394528
6394530
6394516
6394530
6394523
6394523
6394513
6394481
6394499
6394516
6394508
6394514
6394533
6394543
6394527
6394521
6394488
6394150
6393751
6393278
6393656
6394410
6395509
6396839
6399562
6401115
6400727
6399776
6398590
6397311
6394983
6394399
6393820
6394105
6394389
6394508
6394545
6394537
6394482
6394463
6394488
6394490
6394500
6394509
6394521
6394538
6394513
6394510
6394496
6394501
6394550
6394504
6394507
6394596
6394566
6394531
6394501
6394530
6394532
6394531
6394521
6394509
6394566
6394673
6394851
6394977
6395157
6395256
6395535
6395627
6395712
6395825
6396026
6396134
6396289
6396343
6396427
6396473
6396516
6396552
6396577
6396570
6396540
6396519
6396497
6396360
6396292
6396169
6395994
6395887
6395795
6395657
6395567
6395326
6395180
6395023
6394935
6394810
6394709
6394557
6394544
6394544
6394550
6394549
6394548
6394536
6394536
6394509
6394491
6394491
6394501
6394525
6394551
6394529
6394527
6394527
6394515
6394503
6394508
6394506
6394528
6394546
6394526
6394500
6394542
6394542
6394533
6394541
6394506
6394511
6394528
6394521
6394513
6394539
6394550
6394539
6394515
6394511
6394555
6394530
6394506
6394511
6394535
6394517
6394530
6394501
6394521
6394540
6394543
6394549
6394522
6394516
6394521
6394545
6394534
6394525
6394525
6394655
6394753
6394969
6395064
6395216
6395307
6395395
6395446
6395430
6395432
6395439
6395356
6395224
6395116
6394929
6394836
6394683
6394552
6394501
6394514
6394541
6394490
6394491
6394510
6394557
6394544
6394546
6394546
6394508
6394523
6394554
6394524
6394495
6394494
6394509
6394506
6394333
6393581
6393300
6393354
6393896
6394770
6397361
6400086
6400991
6400413
6399390
6398137
6396779
6395515
6394234
6393859
6393980
6394258
6394462
6394549
6394488
6394511
6394509
6394537
6394531
6394531
6394512
6394493
6394490
6394488
6394517
6394512
6394511
6394518
6394504
6394509
6394520
6394516
6394497
6394477
6394480
6394483
6394494
6394504
6394515
6394514
6394574
6394688
6394775
6394860
6394956
6395071
6395204
6395204
6395304
6395420
6395559
6395691
6395883
6395977
6396155
6396240
6396415
6396445
6396471
6396500
6396566
6396596
6396519
6396511
6396522
6396490
6396347
6396268
6396126
6396019
6395938
6395842
6395731
6395529
6395403
6395196
6394936
6394858
6394760
6394640
6394543
6394545
6394544
6394473
6394466
6394520
6394522
6394483
6394503
6394502
6394510
6394522
6394497
6394508
6394519
6394494
6394510
6394525
6394528
6394574
6394561
6394514
6394537
6394482
6394504
6394530
6394537
6394538
6394551
6394526
6394517
6394516
6394526
6394519
6394505
6394524
6394491
6394491
6394510
6394530
6394514
6394511
6394511
6394532
6394505
6394478
6394507
6394553
6394546
6394466
6394486
6394519
6394526
6394543
6394524
6394536
6394609
6394808
6394957
6394957
6395084
6395181
6395252
6395321
6395420
6395451
6395433
6395420
6395399
6395256
6395171
6395077
6395012
6394845
6394741
6394535
6394505
6394500
6394509
6394521
6394518
6394531
6394509
6394515
6394505
6394549
6394544
6394532
6394502
6394520
6394550
6394522
6394501
6394508
6394495
6394203
6393815
6393250
6393497
6394196
6395214
6397905
6399306
6401126
6400877
6400021
6398859
6397577
6395132
6394113
6393862
6394059
6394329
6394482
6394515
6394505
6394538
6394510
6394489
6394492
6394505
6394511
6394521
6394500
6394490
6394485
6394480
6394495
6394487
6394511
6394465
6394489
6394482
6394482
6394484
6394483
6394525
6394491
6394517
6394514
6394503
6394488
6394543
6394785
6394956
6395082
6395324
6395449
6395554
6395682
6395792
6396163
6396163
6396163
6396293
6396338
6396401
6396470
6396514
6396548
6396553
6396549
6396505
6396501
6396477
6396449
6396326
6396257
6396043
6395937
6395828
6395749
6395618
6395533
6395248
6395137
6395063
6394947
6394846
6394655
6394570
6394510
6394559
6394544
6394512
6394499
6394511
6394533
6394510
6394505
6394507
6394501
6394518
6394513
6394512
6394505
6394512
6394519
6394517
6394495
6394538
6394499
6394527
6394510
6394529
6394550
6394521
6394498
6394536
6394521
6394521
6394518
6394536
6394513
6394520
6394513
6394540
6394512
6394519
6394521
6394511
6394490
6394524
6394500
6394485
6394508
6394507
6394511
6394496
6394477
6394510
6394487
6394481
6394468
6394479
6394538
6394720
6394802
6395031
6395103
6395179
6395274
6395358
6395423
6395467
6395470
6395472
6395431
6395320
6395229
6395087
6394999
6394789
6394688
6394506
6394485
6394489
6394497
6394498
6394539
6394522
6394506
6394530
6394558
6394510
6394548
6394524
6394519
6394521
6394559
6394537
6394544
6394496
6394180
6393373
6393253
6393598
6394361
6395426
6398106
6399482
6401149
6400758
6399832
6398663
6396074
6395034
6394055
6393858
6393838
6394107
6394384
6394518
6394516
6394510
6394487
6394481
6394470
6394461
6394490
6394526
6394537
6394531
6394508
6394480
6394460
6394492
6394498
6394524
6394528
6394526
6394521
6394528
6394524
6394539
6394539
6394529
6394516
6394524
6394548
6394785
6394879
6395070
6395189
6395312
6395475
6395586
6395700
6395816
6396047
6396231
6396301
6396377
6396464
6396488
6396545
6396574
6396570
6396558
6396523
6396475
6396516
6396440
6396375
6396234
6396159
6395957
6395886
6395793
6395691
6395425
6395339
6395124
6394979
6394865
6394775
6394582
6394551
6394522
6394547
6394513
6394505
6394505
6394507
6394507
6394516
6394489
6394529
6394532
6394534
6394539
6394522
6394524
6394544
6394556
6394517
6394510
6394505
6394529
6394518
6394552
6394530
6394523
6394520
6394530
6394522
6394544
6394501
6394527
6394543
6394555
6394533
6394518
6394519
6394510
6394510
6394537
6394535
6394518
6394518
6394503
6394492
6394512
6394518
6394559
6394534
6394538
6394549
6394524
6394516
6394522
6394523
6394513
6394517
6394618
6394681
6394833
6394948
6395067
6395171
6395254
6395377
6395439
6395440
6395451
6395368
6395300
6395256
6395149
6394972
6394876
6394789
6394661
6394550
6394525
6394556
6394523
6394499
6394530
6394527
6394545
6394504
6394512
6394510
6394543
6394536
6394504
6394501
6394500
6394497
6394507
6394475
6393987
6393562
6393282
6393316
6393869
6395912
6397300
6400028
6401133
6400521
6399468
6398184
6396875
6394701
6394224
6393812
6393953
6394244
6394444
6394528
6394518
6394542
6394516
6394496
6394473
6394482
6394516
6394486
6394527
6394506
6394522
6394507
6394504
6394511
6394502
6394527
6394524
6394523
6394515
6394503
6394519
6394520
6394497
6394527
6394568
6394577
6394605
6394675
6394932
6395029
6395266
6395356
6395467
6395573
6395793
6395891
6396093
6396154
6396229
6396328
6396401
6396520
6396530
6396590
6396574
6396605
6396570
6396508
6396450
6396383
6396324
6396165
6396026
6395944
6395864
6395600
6395500
6395303
6395193
6394947
6394872
6394639
6394538
6394511
6394531
6394525
6394521
6394537
6394535
6394522
6394509
6394530
6394514
6394514
6394533
6394530
6394490
6394502
6394492
6394503
6394524
6394529
6394516
6394522
6394500
6394500
6394507
6394494
6394511
6394538
6394550
6394538
6394558
6394529
6394526
6394534
6394509
6394506
6394529
6394527
6394550
6394548
6394528
6394507
6394506
6394556
6394509
6394512
6394510
6394514
6394523
6394490
6394465
6394494
6394542
6394523
6394528
6394539
6394561
6394702
6394795
6394993
6395088
6395198
6395289
6395379
6395420
6395487
6395447
6395409
6395357
6395323
6395142
6395042
6394818
6394654
6394551
6394518
6394528
6394537
6394511
6394497
6394509
6394523
6394533
6394566
6394526
6394534
6394544
6394520
6394520
6394524
6394517
6394424
6394259
6393445
6393262
6393487
6394214
6396502
6396502
6397869
6400504
6401148
6400964
6400136
6398966
6396354
6395225
6394097
6393857
6394068
6394353
6394475
6394501
6394527
6394514
6394531
6394508
6394509
6394513
6394515
6394539
6394511
6394499
6394518
6394533
6394526
6394504
6394518
6394534
6394534
6394511
6394511
6394538
6394531
6394521
6394516
6394518
6394519
6394496
6394523
6394726
6394861
6395014
6395151
6395418
6395514
6395625
6395725
6395934
6396034
6396201
6396292
6396391
6396428
6396530
6396534
6396579
6396633
6396603
6396552
6396535
6396494
6396445
6396231
6396096
6395995
6395908
6395820
6395716
6395499
6395368
6395130
6395033
6394942
6394836
6394584
6394535
6394541
6394535
6394523
6394507
6394516
6394527
6394529
6394525
6394509
6394512
6394513
6394518
6394518
6394528
6394531
6394537
6394545
6394515
6394495
6394536
6394537
6394526
6394518
6394482
6394502
6394522
6394506
6394544
6394544
6394523
6394528
6394523
6394498
6394524
6394520
6394520
6394524
6394545
6394536
6394530
6394465
6394552
6394552
6394508
6394504
6394518
6394511
6394537
6394525
6394500
6394533
6394538
6394532
6394513
6394497
6394497
6394587
6394686
6394819
6394927
6395116
6395212
6395294
6395378
6395457
6395457
6395388
6395388
6395329
6395278
6395078
6394967
6394807
6394695
6394587
6394538
6394554
6394522
6394508
6394520
6394503
6394524
6394550
6394554
6394549
6394513
6394513
6394513
6394527
6394517
6394522
6394517
6394461
6394466
6394107
6393694
6393322
6393749
6395688
6398402
6399783
6401149
6400619
6399629
6398425
6397123
6395823
6394877
6394019
6393832
6393913
6394167
6394431
6394485
6394478
6394542
6394526
6394532
6394535
6394525
6394539
6394506
6394551
6394552
6394526
6394486
6394521
6394542
6394537
6394536
6394532
6394526
6394524
6394521
6394527
6394550
6394572
6394516
6394523
6394533
6394575
6394670
6394906
6395096
6395243
6395331
6395412
6395518
6395785
6395858
6396076
6396176
6396313
6396378
6396487
6396487
6396562
6396578
6396579
6396583
6396536
6396523
6396439
6396400
6396264
6396166
6396053
6395969
6395893
6395663
6395556
6395345
6395124
6394994
6394874
6394767
6394678
6394555
6394538
6394549
6394556
6394533
6394519
6394511
6394502
6394580
6394581
6394542
6394548
6394532
6394538
6394543
6394549
6394536
6394523
6394540
6394555
6394540
6394522
6394527
6394545
6394548
6394509
6394502
6394510
6394512
6394533
6394523
6394525
6394510
6394485
6394491
6394509
6394563
6394550
6394561
6394549
6394512
6394478
6394507
6394508
6394537
6394533
6394519
6394529
6394521
6394526
6394539
6394541
6394550
6394558
6394543
6394539
6394678
6394926
6395010
6395088
6395188
6395292
6395435
6395459
6395491
6395510
6395422
6395339
6395250
6395168
6394965
6394841
6394687
6394604
6395163
6395163
6395163
6395163
6395039
6395039
6394948
6394948
6394843
6394733
6394644
6394644
6394558
6394510
6394510
6394507
6394507
6394495
6394499
6394490
6394518
6394506
6394506
6394539
6394531
6394505
6394507
6394501
6394495
6394495
6394484
6394511
6394501
6394527
6394498
6394445
6393855
6393451
6393412
6394083
6395050
6396328
6397712
6400366
6400978
6400182
6399066
6397821
6396482
6394575
6394117
6393817
6394015
6394479
6394511
6394505
6394492
6394506
6394505
6394513
6394495
6394497
6394532
6394516
6394503
6394501
6394483
6394483
6394483
6394526
6394522
6394507
6394530
6394507
6394521
6394546
6394537
6394531
6394526
6394517
6394543
6394569
6394628
6394704
6394911
6395032
6395248
6395362
6395593
6395714
6395899
6396093
6396186
6396337
6396400
6396457
6396492
6396552
6396574
6396572
6396526
6396498
6396491
6396454
6396325
6396263
6396089
6395894
6395798
6395713
6395604
6395499
6395228
6395114
6394915
6394835
6394734
6394639
6394470
6394480
6394456
6394478
6394523
6394496
6394521
6394493
6394482
6394469
6394476
6394475
6394498
6394493
6394495
6394498
6394524
6394530
6394512
6394516
6394487
6394465
6394496
6394484
6394512
6394507
6394484
6394504
6394507
6394514
6394542
6394519
6394499
6394500
6394521
6394509
6394500
6394527
6394544
6394527
6394521
6394538
6394511
6394518
6394504
6394514
6394530
6394555
6394544
6394529
6394530
6394569
6394544
6394529
6394594
6394745
6394813
6395000
6395108
6395275
6395381
6395455
6395423
6395436
6395339
6395234
6395149
6395087
6394881
6394881
6394762
6394593
6394502
6394515
6394517
6394475
6394492
6394499
6394508
6394543
6394545
6394548
6394548
6394507
6394489
6394506
6394507
6394507
6394519
6394513
6394415
6394146
6393338
6393235
6394425
6395530
6396881
6398230
6400751
6401176
6399782
6398577
6397292
6395977
6394963
6394026
6393888
6394135
6394406
6394510
6394505
6394474
6394500
6394553
6394507
6394496
6394506
6394504
6394496
6394474
6394465
6394491
6394466
6394488
6394498
6394512
6394511
6394529
6394521
6394521
6394521
6394520
6394499
6394499
6394535
6394520
6394543
6394605
6394729
6394860
6395285
6395285
6395285
6395353
6395501
6395656
6395725
6395928
6396044
6396215
6396285
6396426
6396457
6396518
6396568
6396591
6396499
6396478
6396463
6396422
6396334
6396273
6396209
6396049
6395943
6395846
6395755
6395659
6395426
6395289
6395064
6394894
6394802
6394662
6394567
6394502
6394500
6394516
6394503
6394481
6394485
6394485
6394524
6394531
6394512
6394509
6394499
6394506
6394480
6394475
6394509
6394514
6394522
6394519
6394510
6394505
6394504
6394530
6394541
6394529
6394507
6394502
6394478
6394493
6394523
6394510
6394512
6394525
6394503
6394480
6394517
6394517
6394519
6394539
6394531
6394518
6394494
6394496
6394519
6394519
6394506
6394521
6394507
6394498
6394534
6394472
6394504
6394533
6394557
6394602
6394678
6394860
6394953
6395133
6395241
6395341
6395386
6395448
6395467
6395436
6395394
6395226
6395146
6394938
6394718
6394611
6394510
6394537
6394520
6394513
6394543
6394521
6394506
6394525
6394533
6394490
6394452
6394482
6394520
6394510
6394499
6394523
6394526
6394527
6394488
6394440
6393955
6393538
6393357
6393923
6394816
6396042
6398823
6400173
6401091
6400402
6398063
6396735
6394677
6393921
6393794
6394270
6394454
6394503
6394503
6394498
6394498
6394505
6394505
6394499
6394501
6394513
6394509
6394504
6394502
6394531
6394524
6394526
6394502
6394522
6394533
6394503
6394496
6394521
6394525
6394506
6394498
6394514
6394530
6394492
6394515
6394548
6394561
6394563
6394616
6394678
6394891
6395018
6395254
6395457
6395602
6395695
6395798
6395884
6396082
6396185
6396337
6396379
6396444
6396500
6396519
6396541
6396610
6396557
6396474
6396435
6396348
6396236
6396120
6395931
6395824
6395720
6395613
6395492
6395255
6395069
6394968
6394850
6394745
6394643
6394511
6394496
6394517
6394498
6394518
6394489
6394489
6394492
6394491
6394491
6394516
6394533
6394532
6394517
6394541
6394515
6394488
6394491
6394487
6394501
6394524
6394518
6394513
6394497
6394493
6394491
6394484
6394534
6394569
6394569
6394523
6394509
6394502
6394512
6394489
6394516
6394444
6394468
6394483
6394471
6394477
6394473
6394539
6394525
6394518
6394514
6394498
6394515
6394525
6394533
6394549
6394520
6394490
6394508
6394536
6394692
6394778
6394995
6395176
6395273
6395324
6395385
6395442
6395406
6395424
6395345
6395282
6395185
6395088
6394925
6394812
6394569
6394477
6394475
6394526
6394449
6394480
6394509
6394501
6394507
6394516
6394515
6394502
6394514
6394501
6394467
6394483
6394492
6394481
6394439
6394168
6393409
6393516
6394259
6395306
6396600
6397962
6400563
6401154
6400023
6398840
6397554
6396242
6394429
6394080
6393854
6394069
6394484
6394528
6394486
6394512
6394508
6394503
6394471
6394472
6394492
6394513
6394509
6394509
6394522
6394537
6394514
6394518
6394519
6394515
6394497
6394549
6394485
6394505
6394497
6394490
6394499
6394501
6394491
6394553
6394635
6394723
6394931
6395040
6395266
6395372
6395475
6395585
6395712
6395926
6396010
6396169
6396367
6396435
6396494
6396483
6396490
6396553
6396575
6396524
6396494
6396481
6396480
6396319
6396231
6396061
6395952
6395765
6395676
6395471
6395204
6395119
6394921
6394810
6394668
6394581
6394574
6394556
6394523
6394516
6394501
6394497
6394493
6394514
6394506
6394510
6394501
6394497
6394490
6394507
6394549
6394555
6394507
6394521
6394503
6394554
6394548
6394522
6394497
6394487
6394559
6394541
6394518
6394512
6394516
6394517
6394531
6394508
6394522
6394551
6394535
6394512
6394482
6394482
6394497
6394527
6394526
6394521
6394506
6394522
6394499
6394525
6394531
6394490
6394494
6394516
6394537
6394540
6394513
6394507
6394525
6394566
6394746
6394845
6395047
6395138
6395227
6395302
6395358
6395450
6395441
6395443
6395454
6395287
6395287
6395205
6395097
6394993
6394793
6394701
6394513
6394488
6394496
6394508
6394509
6394512
6394517
6394538
6394526
6394529
6394548
6394540
6394581
6394545
6394486
6394502
6394492
6394505
6394495
6394084
6393333
6393308
6393774
6394628
6395750
6398499
6399860
6401122
6400552
6398341
6397019
6395755
6394836
6393997
6393815
6394190
6394418
6394497
6394501
6394526
6394478
6394505
6394533
6394523
6394511
6394467
6394518
6394533
6394530
6394509
6394516
6394496
6394456
6394521
6394490
6394506
6394499
6394493
6394494
6394525
6394524
6394521
6394531
6394580
6394682
6394811
6394881
6395110
6395203
6395416
6395541
6395674
6395766
6395941
6396039
6396246
6396332
6396383
6396432
6396505
6396497
6396540
6396571
6396512
6396493
6396467
6396418
6396363
6396295
6396212
6396212
6396148
6396148
6396051
6395836
6395836
6395720
6395616
6395445
6395322
6395105
6394966
6394765
6394667
6394533
6394559
6394564
6394488
6394499
6394505
6394482
6394482
6394480
6394521
6394473
6394498
6394520
6394499
6394561
6394549
6394498
6394514
6394535
6394528
6394541
6394542
6394519
6394527
6394519
6394505
6394547
6394581
6394545
6394530
6394499
6394496
6394534
6394525
6394495
6394473
6394518
6394496
6394506
6394528
6394530
6394496
6394491
6394491
6394491
6394472
6394506
6394528
6394538
6394516
6394510
6394514
6394494
6394515
6394534
6394602
6394703
6394878
6394964
6395150
6395266
6395328
6395374
6395431
6395429
6395422
6395332
6395275
6395216
6395085
6394962
6394838
6394628
6394480
6394500
6394530
6394504
6394482
6394526
6394509
6394515
6394517
6394512
6394504
6394519
6394528
6394484
6394481
6394491
6394537
6394446
6393873
6393480
6393411
6394071
6395035
6396326
6397678
6399052
6400335
6400985
6400220
6399078
6397807
6396484
6394587
6394162
6393816
6394031
6394481
6394526
6394512
6394492
6394522
6394543
6394477
6394505
6394538
6394535
6394485
6394465
6394516
6394508
6394492
6394487
6394508
6394474
6394502
6394521
6394498
6394491
6394496
6394501
6394504
6394523
6394523
6394523
6394524
6394538
6394637
6394750
6394912
6395010
6395214
6395347
6395626
6395745
6395842
6395894
6396092
6396188
6396326
6396388
6396431
6396506
6396533
6396559
6396578
6396570
6396537
6396493
6396419
6396330
6396269
6396090
6395906
6395799
6395691
6395588
6395479
6395265
6395145
6394921
6394845
6394717
6394623
6394518
6394526
6394522
6394498
6394488
6394485
6394489
6394490
6394477
6394513
6394512
6394512
6394548
6394535
6394516
6394511
6394519
6394534
6394529
6394533
6394536
6394505
6394519
6394536
6394528
6394499
6394501
6394510
6394474
6394497
6394530
6394514
6394498
6394502
6394500
6394543
6394543
6394537
6394512
6394486
6394514
6394511
6394529
6394521
6394517
6394533
6394532
6394542
6394493
6394494
6394474
6394482
6394497
6394463
6394503
6394705
6394789
6395019
6395121
6395260
6395315
6395383
6395410
6395432
6395430
6395362
6395319
6395201
6395094
6394876
6394766
6394598
6394500
6394442
6394480
6394515
6394487
6394496
6394536
6394515
6394510
6394548
6394578
6394563
6394496
6394512
6394496
6394517
6394500
6394505
6394355
6394119
6393367
6393255
6394408
6395512
6398184
6400685
6401122
6399789
6398564
6397249
6395952
6394946
6394021
6393886
6394145
6394415
6394527
6394543
6394497
6394514
6394506
6394510
6394486
6394501
6394519
6394511
6394480
6394482
6394515
6394518
6394515
6394536
6394489
6394500
6394540
6394535
6394469
6394497
6394503
6394502
6394515
6394522
6394588
6394667
6394712
6394789
6394906
6395009
6395102
6395209
6395346
6395461
6395551
6395637
6395874
6395947
6396172
6396229
6396334
6396427
6396559
6396559
6396536
6396550
6396511
6396498
6396493
6396478
6396322
6396258
6396150
6396053
6395926
6395842
6395732
6395532
6395421
6395164
6394977
6394852
6394743
6394643
6394542
6394554
6394526
6394562
6394548
6394525
6394506
6394503
6394502
6394487
6394526
6394549
6394481
6394517
6394508
6394521
6394547
6394533
6394540
6394515
6394525
6394516
6394492
6394492
6394514
6394514
6394516
6394526
6394511
6394506
6394517
6394539
6394526
6394518
6394523
6394505
6394505
6394497
6394495
6394495
6394528
6394587
6394564
6394516
6394526
6394550
6394493
6394535
6394520
6394523
6394503
6394532
6394563
6394527
6394515
6394500
6394531
6394609
6394791
6394907
6395092
6395187
6395279
6395339
6395459
6395458
6395457
6395427
6395242
6395197
6395124
6395046
6394817
6394714
6394512
6394516
6394512
6394510
6394512
6394515
6394544
6394565
6394539
6394533
6394532
6394510
6394522
6394491
6394525
6394534
6394549
6394577
6394513
6394209
6393838
6393289
6393540
6394229
6395236
6397917
6399320
6401128
6400882
6398871
6397581
6395155
6394037
6393839
6394110
6394362
6394482
6394521
6394515
6394489
6394494
6394505
6394514
6394520
6394506
6394501
6394525
6394519
6394549
6394534
6394492
6394505
6394482
6394500
6394526
6394545
6394525
6394498
6394475
6394530
6394515
6394516
6394514
6394546
6394617
6394827
6394935
6395157
6395360
6395494
6395655
6395756
6395822
6396046
6396139
6396283
6396334
6396400
6396472
6396502
6396532
6396575
6396572
6396496
6396484
6396371
6396269
6396176
6396000
6395898
6395789
6395708
6395495
6395495
6395355
6395110
6394992
6394906
6394788
6394660
6394564
6394517
6394498
6394536
6394542
6394510
6394497
6394495
6394554
6394537
6394527
6394527
6394543
6394523
6394499
6394525
6394543
6394511
6394498
6394507
6394503
6394516
6394514
6394510
6394473
6394499
6394535
6394504
6394515
6394498
6394493
6394521
6394520
6394502
6394488
6394526
6394526
6394516
6394496
6394490
6394509
6394517
6394539
6394517
6394526
6394500
6394487
6394530
6394532
6394523
6394535
6394524
6394502
6394541
6394652
6394781
6394926
6395086
6395185
6395301
6395385
6395424
6395469
6395450
6395323
6395323
6395283
6395176
6394985
6394866
6394688
6394559
6394506
6394547
6394504
6394486
6394509
6394508
6394513
6394524
6394513
6394490
6394490
6394480
6394506
6394507
6394515
6394526
6394523
6394509
6394475
6393619
6393619
6393281
6393771
6394577
6395699
6397104
6399849
6400882
6400576
6399599
6398418
6397079
6394830
6394297
6393828
6393939
6394434
6394485
6394494
6394517
6394495
6394516
6394525
6394520
6394479
6394475
6394525
6394520
6394518
6394518
6394506
6394509
6394509
6394501
6394466
6394485
6394483
6394511
6394504
6394457
6394505
6394527
6394494
6394506
6394578
6394704
6394896
6394997
6395193
6395337
6395557
6395665
6395839
6395949
6396157
6396320
6396360
6396431
6396514
6396514
6396500
6396562
6396549
6396505
6396505
6396491
6396375
6396301
6396138
6396037
6395860
6395785
6395511
6395346
6395228
6394973
6394851
6394753
6394639
6394544
6394517
6394519
6394508
6394498
6394510
6394509
6394504
6394517
6394522
6394512
6394491
6394482
6394512
6394540
6394541
6394544
6394533
6394515
6394522
6394512
6394516
6394535
6394518
6394515
6394528
6394516
6394514
6394497
6394471
6394483
6394488
6394485
6394493
6394522
6394533
6394494
6394521
6394518
6394528
6394486
6394516
6394527
6394514
6394527
6394503
6394557
6394539
6394510
6394511
6394523
6394534
6394540
6394533
6394527
6394528
6394739
6394812
6394970
6395082
6395239
6395312
6395434
6395489
6395445
6395371
6395331
6395246
6395145
6395069
6394821
6394769
6394554
6394541
6394508
6394488
6394503
6394525
6394538
6394536
6394524
6394531
6394502
6394504
6394504
6394527
6394525
6394513
6394486
6394488
6394488
6394464
6394314
6394314
6393485
6393242
6393398
6394038
6395002
6397656
6399012
6401089
6400238
6399133
6397876
6396548
6395342
6394142
6393893
6394007
6394283
6394475
6394523
6394503
6394529
6394536
6394493
6394531
6394514
6394517
6394528
6394543
6394527
6394507
6394519
6394537
6394530
6394533
6394524
6394530
6394539
6394530
6394518
6394527
6394510
6394502
6394512
6394511
6394550
6394573
6394692
6394821
6395013
6395149
6395358
6395471
6395608
6395709
6395890
6395995
6396193
6396254
6396370
6396443
6396539
6396563
6396554
6396530
6396507
6396500
6396437
6396389
6396256
6396185
6396012
6395921
6395814
6395721
6395493
6395401
6395140
6395050
6394841
6394746
6394535
6394519
6394497
6394523
6394536
6394523
6394509
6394517
6394519
6394512
6394507
6394486
6394485
6394512
6394496
6394532
6394516
6394504
6394526
6394556
6394551
6394528
6394510
6394493
6394499
6394479
6394494
6394518
6394516
6394546
6394529
6394508
6394498
6394519
6394534
6394510
6394509
6394509
6394542
6394548
6394534
6394514
6394502
6394512
6394515
6394540
6394531
6394553
6394528
6394525
6394532
6394506
6394482
6394482
6394515
6394564
6394637
6394844
6394940
6395164
6395222
6395297
6395369
6395408
6395401
6395431
6395413
6395314
6395217
6395010
6394889
6394708
6394537
6394528
6394530
6394516
6394530
6394523
6394523
6394513
6394481
6394499
6394516
6394508
6394514
6394533
6394543
6394527
6394521
6394488
6394150
6393751
6393278
6393656
6394410
6395509
6396839
6399562
6401115
6400727
6399776
6398590
6397311
6394983
6394399
6393820
6394105
6394389
6394508
6394545
6394537
6394482
6394463
6394488
6394490
6394500
6394509
6394521
6394538
6394513
6394510
6394496
6394501
6394550
6394504
6394507
6394596
6394566
6394531
6394501
6394530
6394532
6394531
6394521
6394509
6394566
6394673
6394851
6394977
6395157
6395256
6395535
6395627
6395712
6395825
6396026
6396134
6396289
6396343
6396427
6396473
6396516
6396552
6396577
6396570
6396540
6396519
6396497
6396360
6396292
6396169
6395994
6395887
6395795
6395657
6395567
6395326
6395180
6395023
6394935
6394810
6394709
6394557
6394544
6394544
6394550
6394549
6394548
6394536
6394536
6394509
6394491
6394491
6394501
6394525
6394551
6394529
6394527
6394527
6394515
6394503
6394508
6394506
6394528
6394546
6394526
6394500
6394542
6394542
6394533
6394541
6394506
6394511
6394528
6394521
6394513
6394539
6394550
6394539
6394515
6394511
6394555
6394530
6394506
6394511
6394535
6394517
6394530
6394501
6394521
6394540
6394543
6394549
6394522
6394516
6394521
6394545
6394534
6394525
6394525
6394655
6394753
6394969
6395064
6395216
6395307
6395395
6395446
6395430
6395432
6395439
6395356
6395224
6395116
6394929
6394836
6394683
6394552
6394501
6394514
6394541
6394490
6394491
6394510
6394557
6394544
6394546
6394546
6394508
6394523
6394554
6394524
6394495
6394494
6394509
6394506
6394333
6393581
6393300
6393354
6393896
6394770
6397361
6400086
6400991
6400413
6399390
6398137
6396779
6395515
6394234
6393859
6393980
6394258
6394462
6394549
6394488
6394511
6394509
6394537
6394531
6394531
6394512
6394493
6394490
6394488
6394517
6394512
6394511
6394518
6394504
6394509
6394520
6394516
6394497
6394477
6394480
6394483
6394494
6394504
6394515
6394514
6394574
6394688
6394775
6394860
6394956
6395071
6395204
6395204
6395304
6395420
6395559
6395691
6395883
6395977
6396155
6396240
6396415
6396445
6396471
6396500
6396566
6396596
6396519
6396511
6396522
6396490
6396347
6396268
6396126
6396019
6395938
6395842
6395731
6395529
6395403
6395196
6394936
6394858
6394760
6394640
6394543
6394545
6394544
6394473
6394466
6394520
6394522
6394483
6394503
6394502
6394510
6394522
6394497
6394508
6394519
6394494
6394510
6394525
6394528
6394574
6394561
6394514
6394537
6394482
6394504
6394530
6394537
6394538
6394551
6394526
6394517
6394516
6394526
6394519
6394505
6394524
6394491
6394491
6394510
6394530
6394514
6394511
6394511
6394532
6394505
6394478
6394507
6394553
6394546
6394466
6394486
6394519
6394526
6394543
6394524
6394536
6394609
6394808
6394957
6394957
6395084
6395181
6395252
6395321
6395420
6395451
6395433
6395420
6395399
6395256
6395171
6395077
6395012
6394845
6394741
6394535
6394505
6394500
6394509
6394521
6394518
6394531
6394509
6394515
6394505
6394549
6394544
6394532
6394502
6394520
6394550
6394522
6394501
6394508
6394495
6394203
6393815
6393250
6393497
6394196
6395214
6397905
6399306
6401126
6400877
6400021
6398859
6397577
6395132
6394113
6393862
6394059
6394329
6394482
6394515
6394505
6394538
6394510
6394489
6394492
6394505
6394511
6394521
6394500
6394490
6394485
6394480
6394495
6394487
6394511
6394465
6394489
6394482
6394482
6394484
6394483
6394525
6394491
6394517
6394514
6394503
6394488
6394543
6394785
6394956
6395082
6395324
6395449
6395554
6395682
6395792
6396163
6396163
6396163
6396293
6396338
6396401
6396470
6396514
6396548
6396553
6396549
6396505
6396501
6396477
6396449
6396326
6396257
6396043
6395937
6395828
6395749
6395618
6395533
6395248
6395137
6395063
6394947
6394846
6394655
6394570
6394510
6394559
6394544
6394512
6394499
6394511
6394533
6394510
6394505
6394507
6394501
6394518
6394513
6394512
6394505
6394512
6394519
6394517
6394495
6394538
6394499
6394527
6394510
6394529
6394550
6394521
6394498
6394536
6394521
6394521
6394518
6394536
6394513
6394520
6394513
6394540
6394512
6394519
6394521
6394511
6394490
6394524
6394500
6394485
6394508
6394507
6394511
6394496
6394477
6394510
6394487
6394481
6394468
6394479
6394538
6394720
6394802
6395031
6395103
6395179
6395274
6395358
6395423
6395467
6395470
6395472
6395431
6395320
6395229
6395087
6394999
6394789
6394688
6394506
6394485
6394489
6394497
6394498
6394539
6394522
6394506
6394530
6394558
6394510
6394548
6394524
6394519
6394521
6394559
6394537
6394544
6394496
6394180
6393373
6393253
6393598
6394361
6395426
6398106
6399482
6401149
6400758
6399832
6398663
6396074
6395034
6394055
6393858
6393838
6394107
6394384
6394518
6394516
6394510
6394487
6394481
6394470
6394461
6394490
6394526
6394537
6394531
6394508
6394480
6394460
6394492
6394498
6394524
6394528
6394526
6394521
6394528
6394524
6394539
6394539
6394529
6394516
6394524
6394548
6394785
6394879
6395070
6395189
6395312
6395475
6395586
6395700
6395816
6396047
6396231
6396301
6396377
6396464
6396488
6396545
6396574
6396570
6396558
6396523
6396475
6396516
6396440
6396375
6396234
6396159
6395957
6395886
6395793
6395691
6395425
6395339
6395124
6394979
6394865
6394775
6394582
6394551
6394522
6394547
6394513
6394505
6394505
6394507
6394507
6394516
6394489
6394529
6394532
6394534
6394539
6394522
6394524
6394544
6394556
6394517
6394510
6394505
6394529
6394518
6394552
6394530
6394523
6394520
6394530
6394522
6394544
6394501
6394527
6394543
6394555
6394533
6394518
6394519
6394510
6394510
6394537
6394535
6394518
6394518
6394503
6394492
6394512
6394518
6394559
6394534
6394538
6394549
6394524
6394516
6394522
6394523
6394513
6394517
6394618
6394681
6394833
6394948
6395067
6395171
6395254
6395377
6395439
6395440
6395451
6395368
6395300
6395256
6395149
6394972
6394876
6394789
6394661
6394550
6394525
6394556
6394523
6394499
6394530
6394527
6394545
6394504
6394512
6394510
6394543
6394536
6394504
6394501
6394500
6394497
6394507
6394475
6393987
6393562
6393282
6393316
6393869
6395912
6397300
6400028
6401133
6400521
6399468
6398184
6396875
6394701
6394224
6393812
6393953
6394244
6394444
6394528
6394518
6394542
6394516
6394496
6394473
6394482
6394516
6394486
6394527
6394506
6394522
6394507
6394504
6394511
6394502
6394527
6394524
6394523
6394515
6394503
6394519
6394520
6394497
6394527
6394568
6394577
6394605
6394675
6394932
6395029
6395266
6395356
6395467
6395573
6395793
6395891
6396093
6396154
6396229
6396328
6396401
6396520
6396530
6396590
6396574
6396605
6396570
6396508
6396450
6396383
6396324
6396165
6396026
6395944
6395864
6395600
6395500
6395303
6395193
6394947
6394872
6394639
6394538
6394511
6394531
6394525
6394521
6394537
6394535
6394522
6394509
6394530
6394514
6394514
6394533
6394530
6394490
6394502
6394492
6394503
6394524
6394529
6394516
6394522
6394500
6394500
6394507
6394494
6394511
6394538
6394550
6394538
6394558
6394529
6394526
6394534
6394509
6394506
6394529
6394527
6394550
6394548
6394528
6394507
6394506
6394556
6394509
6394512
6394510
6394514
6394523
6394490
6394465
6394494
6394542
6394523
6394528
6394539
6394561
6394702
6394795
6394993
6395088
6395198
6395289
6395379
6395420
6395487
6395447
6395409
6395357
6395323
6395142
6395042
6394818
6394654
6394551
6394518
6394528
6394537
6394511
6394497
6394509
6394523
6394533
6394566
6394526
6394534
6394544
6394520
6394520
6394524
6394517
6394424
6394259
6393445
6393262
6393487
6394214
6396502
6396502
6397869
6400504
6401148
6400964
6400136
6398966
6396354
6395225
6394097
6393857
6394068
6394353
6394475
6394501
6394527
6394514
6394531
6394508
6394509
6394513
6394515
6394539
6394511
6394499
6394518
6394533
6394526
6394504
6394518
6394534
6394534
6394511
6394511
6394538
6394531
6394521
6394516
6394518
6394519
6394496
6394523
6394726
6394861
6395014
6395151
6395418
6395514
6395625
6395725
6395934
6396034
6396201
6396292
6396391
6396428
6396530
6396534
6396579
6396633
6396603
6396552
6396535
6396494
6396445
6396231
6396096
6395995
6395908
6395820
6395716
6395499
6395368
6395130
6395033
6394942
6394836
6394584
6394535
6394541
6394535
6394523
6394507
6394516
6394527
6394529
6394525
6394509
6394512
6394513
6394518
6394518
6394528
6394531
6394537
6394545
6394515
6394495
6394536
6394537
6394526
6394518
6394482
6394502
6394522
6394506
6394544
6394544
6394523
6394528
6394523
6394498
6394524
6394520
6394520
6394524
6394545
6394536
6394530
6394465
6394552
6394552
6394508
6394504
6394518
6394511
6394537
6394525
6394500
6394533
6394538
6394532
6394513
6394497
6394497
6394587
6394686
6394819
6394927
6395116
6395212
6395294
6395378
6395457
6395457
6395388
6395388
6395329
6395278
6395078
6394967
6394807
6394695
6394587
6394538
6394554
6394522
6394508
6394520
6394503
6394524
6394550
6394554
6394549
6394513
6394513
6394513
6394527
6394517
6394522
6394517
6394461
6394466
6394107
6393694
6393322
6393749
6395688
6398402
6399783
6401149
6400619
6399629
6398425
6397123
6395823
6394877
6394019
6393832
6393913
6394167
6394431
6394485
6394478
6394542
6394526
6394532
6394535
6394525
6394539
6394506
6394551
6394552
6394526
6394486
6394521
6394542
6394537
6394536
6394532
6394526
6394524
6394521
6394527
6394550
6394572
6394516
6394523
6394533
6394575
6394670
6394906
6395096
6395243
6395331
6395412
6395518
6395785
6395858
6396076
6396176
6396313
6396378
6396487
6396487
6396562
6396578
6396579
6396583
6396536
6396523
6396439
6396400
6396264
6396166
6396053
6395969
6395893
6395663
6395556
6395345
6395124
6394994
6394874
6394767
6394678
6394555
6394538
6394549
6394556
6394533
6394519
6394511
6394502
6394580
6394581
6394542
6394548
6394532
6394538
6394543
6394549
6394536
6394523
6394540
6394555
6394540
6394522
6394527
6394545
6394548
6394509
6394502
6394510
6394512
6394533
6394523
6394525
6394510
6394485
6394491
6394509
6394563
6394550
6394561
6394549
6394512
6394478
6394507
6394508
6394537
6394533
6394519
6394529
6394521
6394526
6394539
6394541
6394550
6394558
6394543
6394539
6394678
6394926
6395010
6395088
6395188
6395292
6395435
6395459
6395491
6395510
6395422
6395339
6395250
6395168
6394965
6394841
6394687
6394604